#  E (eV)   dos(E)     Int dos(E) EFermi =    0.000 eV
  -5.000  0.2851E+00  0.2851E-02
  -4.990  0.2875E+00  0.5726E-02
  -4.980  0.2892E+00  0.8618E-02
  -4.970  0.2902E+00  0.1152E-01
  -4.960  0.2905E+00  0.1443E-01
  -4.950  0.2903E+00  0.1733E-01
  -4.940  0.2897E+00  0.2022E-01
  -4.930  0.2887E+00  0.2311E-01
  -4.920  0.2875E+00  0.2599E-01
  -4.910  0.2863E+00  0.2885E-01
  -4.900  0.2853E+00  0.3170E-01
  -4.890  0.2845E+00  0.3455E-01
  -4.880  0.2841E+00  0.3739E-01
  -4.870  0.2842E+00  0.4023E-01
  -4.860  0.2849E+00  0.4308E-01
  -4.850  0.2862E+00  0.4594E-01
  -4.840  0.2882E+00  0.4882E-01
  -4.830  0.2907E+00  0.5173E-01
  -4.820  0.2939E+00  0.5467E-01
  -4.810  0.2975E+00  0.5765E-01
  -4.800  0.3016E+00  0.6066E-01
  -4.790  0.3059E+00  0.6372E-01
  -4.780  0.3105E+00  0.6683E-01
  -4.770  0.3152E+00  0.6998E-01
  -4.760  0.3199E+00  0.7318E-01
  -4.750  0.3244E+00  0.7642E-01
  -4.740  0.3289E+00  0.7971E-01
  -4.730  0.3331E+00  0.8304E-01
  -4.720  0.3371E+00  0.8641E-01
  -4.710  0.3408E+00  0.8982E-01
  -4.700  0.3442E+00  0.9326E-01
  -4.690  0.3475E+00  0.9674E-01
  -4.680  0.3505E+00  0.1002E+00
  -4.670  0.3534E+00  0.1038E+00
  -4.660  0.3562E+00  0.1073E+00
  -4.650  0.3590E+00  0.1109E+00
  -4.640  0.3617E+00  0.1145E+00
  -4.630  0.3644E+00  0.1182E+00
  -4.620  0.3672E+00  0.1219E+00
  -4.610  0.3699E+00  0.1256E+00
  -4.600  0.3726E+00  0.1293E+00
  -4.590  0.3753E+00  0.1330E+00
  -4.580  0.3779E+00  0.1368E+00
  -4.570  0.3804E+00  0.1406E+00
  -4.560  0.3826E+00  0.1444E+00
  -4.550  0.3846E+00  0.1483E+00
  -4.540  0.3862E+00  0.1522E+00
  -4.530  0.3874E+00  0.1560E+00
  -4.520  0.3881E+00  0.1599E+00
  -4.510  0.3884E+00  0.1638E+00
  -4.500  0.3881E+00  0.1677E+00
  -4.490  0.3873E+00  0.1716E+00
  -4.480  0.3860E+00  0.1754E+00
  -4.470  0.3843E+00  0.1793E+00
  -4.460  0.3821E+00  0.1831E+00
  -4.450  0.3797E+00  0.1869E+00
  -4.440  0.3770E+00  0.1906E+00
  -4.430  0.3743E+00  0.1944E+00
  -4.420  0.3716E+00  0.1981E+00
  -4.410  0.3692E+00  0.2018E+00
  -4.400  0.3671E+00  0.2055E+00
  -4.390  0.3656E+00  0.2091E+00
  -4.380  0.3649E+00  0.2128E+00
  -4.370  0.3650E+00  0.2164E+00
  -4.360  0.3661E+00  0.2201E+00
  -4.350  0.3683E+00  0.2238E+00
  -4.340  0.3717E+00  0.2275E+00
  -4.330  0.3763E+00  0.2312E+00
  -4.320  0.3821E+00  0.2351E+00
  -4.310  0.3891E+00  0.2390E+00
  -4.300  0.3971E+00  0.2429E+00
  -4.290  0.4060E+00  0.2470E+00
  -4.280  0.4157E+00  0.2511E+00
  -4.270  0.4258E+00  0.2554E+00
  -4.260  0.4363E+00  0.2598E+00
  -4.250  0.4467E+00  0.2642E+00
  -4.240  0.4568E+00  0.2688E+00
  -4.230  0.4665E+00  0.2735E+00
  -4.220  0.4753E+00  0.2782E+00
  -4.210  0.4832E+00  0.2830E+00
  -4.200  0.4900E+00  0.2879E+00
  -4.190  0.4955E+00  0.2929E+00
  -4.180  0.4997E+00  0.2979E+00
  -4.170  0.5026E+00  0.3029E+00
  -4.160  0.5042E+00  0.3080E+00
  -4.150  0.5046E+00  0.3130E+00
  -4.140  0.5039E+00  0.3181E+00
  -4.130  0.5022E+00  0.3231E+00
  -4.120  0.4998E+00  0.3281E+00
  -4.110  0.4967E+00  0.3330E+00
  -4.100  0.4933E+00  0.3380E+00
  -4.090  0.4895E+00  0.3429E+00
  -4.080  0.4855E+00  0.3477E+00
  -4.070  0.4815E+00  0.3525E+00
  -4.060  0.4775E+00  0.3573E+00
  -4.050  0.4736E+00  0.3620E+00
  -4.040  0.4698E+00  0.3667E+00
  -4.030  0.4661E+00  0.3714E+00
  -4.020  0.4626E+00  0.3760E+00
  -4.010  0.4593E+00  0.3806E+00
  -4.000  0.4562E+00  0.3852E+00
  -3.990  0.4534E+00  0.3897E+00
  -3.980  0.4509E+00  0.3942E+00
  -3.970  0.4489E+00  0.3987E+00
  -3.960  0.4475E+00  0.4032E+00
  -3.950  0.4467E+00  0.4077E+00
  -3.940  0.4468E+00  0.4121E+00
  -3.930  0.4479E+00  0.4166E+00
  -3.920  0.4500E+00  0.4211E+00
  -3.910  0.4533E+00  0.4256E+00
  -3.900  0.4579E+00  0.4302E+00
  -3.890  0.4636E+00  0.4349E+00
  -3.880  0.4706E+00  0.4396E+00
  -3.870  0.4787E+00  0.4444E+00
  -3.860  0.4877E+00  0.4492E+00
  -3.850  0.4975E+00  0.4542E+00
  -3.840  0.5078E+00  0.4593E+00
  -3.830  0.5184E+00  0.4645E+00
  -3.820  0.5289E+00  0.4698E+00
  -3.810  0.5392E+00  0.4751E+00
  -3.800  0.5489E+00  0.4806E+00
  -3.790  0.5578E+00  0.4862E+00
  -3.780  0.5658E+00  0.4919E+00
  -3.770  0.5726E+00  0.4976E+00
  -3.760  0.5782E+00  0.5034E+00
  -3.750  0.5825E+00  0.5092E+00
  -3.740  0.5856E+00  0.5151E+00
  -3.730  0.5876E+00  0.5209E+00
  -3.720  0.5886E+00  0.5268E+00
  -3.710  0.5889E+00  0.5327E+00
  -3.700  0.5885E+00  0.5386E+00
  -3.690  0.5877E+00  0.5445E+00
  -3.680  0.5869E+00  0.5503E+00
  -3.670  0.5862E+00  0.5562E+00
  -3.660  0.5860E+00  0.5621E+00
  -3.650  0.5863E+00  0.5679E+00
  -3.640  0.5874E+00  0.5738E+00
  -3.630  0.5894E+00  0.5797E+00
  -3.620  0.5924E+00  0.5856E+00
  -3.610  0.5964E+00  0.5916E+00
  -3.600  0.6013E+00  0.5976E+00
  -3.590  0.6072E+00  0.6037E+00
  -3.580  0.6137E+00  0.6098E+00
  -3.570  0.6209E+00  0.6160E+00
  -3.560  0.6284E+00  0.6223E+00
  -3.550  0.6360E+00  0.6287E+00
  -3.540  0.6435E+00  0.6351E+00
  -3.530  0.6506E+00  0.6416E+00
  -3.520  0.6572E+00  0.6482E+00
  -3.510  0.6631E+00  0.6548E+00
  -3.500  0.6680E+00  0.6615E+00
  -3.490  0.6720E+00  0.6682E+00
  -3.480  0.6750E+00  0.6750E+00
  -3.470  0.6769E+00  0.6817E+00
  -3.460  0.6778E+00  0.6885E+00
  -3.450  0.6778E+00  0.6953E+00
  -3.440  0.6772E+00  0.7020E+00
  -3.430  0.6759E+00  0.7088E+00
  -3.420  0.6742E+00  0.7155E+00
  -3.410  0.6723E+00  0.7223E+00
  -3.400  0.6704E+00  0.7290E+00
  -3.390  0.6686E+00  0.7357E+00
  -3.380  0.6670E+00  0.7423E+00
  -3.370  0.6658E+00  0.7490E+00
  -3.360  0.6650E+00  0.7556E+00
  -3.350  0.6648E+00  0.7623E+00
  -3.340  0.6652E+00  0.7689E+00
  -3.330  0.6663E+00  0.7756E+00
  -3.320  0.6681E+00  0.7823E+00
  -3.310  0.6707E+00  0.7890E+00
  -3.300  0.6741E+00  0.7957E+00
  -3.290  0.6784E+00  0.8025E+00
  -3.280  0.6838E+00  0.8094E+00
  -3.270  0.6902E+00  0.8163E+00
  -3.260  0.6979E+00  0.8232E+00
  -3.250  0.7068E+00  0.8303E+00
  -3.240  0.7171E+00  0.8375E+00
  -3.230  0.7288E+00  0.8448E+00
  -3.220  0.7419E+00  0.8522E+00
  -3.210  0.7564E+00  0.8597E+00
  -3.200  0.7722E+00  0.8675E+00
  -3.190  0.7891E+00  0.8754E+00
  -3.180  0.8069E+00  0.8834E+00
  -3.170  0.8252E+00  0.8917E+00
  -3.160  0.8438E+00  0.9001E+00
  -3.150  0.8623E+00  0.9087E+00
  -3.140  0.8801E+00  0.9175E+00
  -3.130  0.8968E+00  0.9265E+00
  -3.120  0.9120E+00  0.9356E+00
  -3.110  0.9252E+00  0.9449E+00
  -3.100  0.9359E+00  0.9542E+00
  -3.090  0.9437E+00  0.9637E+00
  -3.080  0.9485E+00  0.9732E+00
  -3.070  0.9499E+00  0.9827E+00
  -3.060  0.9479E+00  0.9921E+00
  -3.050  0.9425E+00  0.1002E+01
  -3.040  0.9339E+00  0.1011E+01
  -3.030  0.9221E+00  0.1020E+01
  -3.020  0.9077E+00  0.1029E+01
  -3.010  0.8911E+00  0.1038E+01
  -3.000  0.8728E+00  0.1047E+01
  -2.990  0.8535E+00  0.1055E+01
  -2.980  0.8337E+00  0.1064E+01
  -2.970  0.8141E+00  0.1072E+01
  -2.960  0.7954E+00  0.1080E+01
  -2.950  0.7782E+00  0.1088E+01
  -2.940  0.7631E+00  0.1095E+01
  -2.930  0.7504E+00  0.1103E+01
  -2.920  0.7405E+00  0.1110E+01
  -2.910  0.7337E+00  0.1117E+01
  -2.900  0.7300E+00  0.1125E+01
  -2.890  0.7293E+00  0.1132E+01
  -2.880  0.7315E+00  0.1139E+01
  -2.870  0.7363E+00  0.1147E+01
  -2.860  0.7431E+00  0.1154E+01
  -2.850  0.7514E+00  0.1162E+01
  -2.840  0.7607E+00  0.1169E+01
  -2.830  0.7702E+00  0.1177E+01
  -2.820  0.7792E+00  0.1185E+01
  -2.810  0.7870E+00  0.1193E+01
  -2.800  0.7931E+00  0.1201E+01
  -2.790  0.7969E+00  0.1209E+01
  -2.780  0.7979E+00  0.1217E+01
  -2.770  0.7958E+00  0.1224E+01
  -2.760  0.7905E+00  0.1232E+01
  -2.750  0.7819E+00  0.1240E+01
  -2.740  0.7701E+00  0.1248E+01
  -2.730  0.7555E+00  0.1255E+01
  -2.720  0.7383E+00  0.1263E+01
  -2.710  0.7192E+00  0.1270E+01
  -2.700  0.6986E+00  0.1277E+01
  -2.690  0.6771E+00  0.1284E+01
  -2.680  0.6555E+00  0.1290E+01
  -2.670  0.6342E+00  0.1297E+01
  -2.660  0.6139E+00  0.1303E+01
  -2.650  0.5951E+00  0.1309E+01
  -2.640  0.5782E+00  0.1315E+01
  -2.630  0.5635E+00  0.1320E+01
  -2.620  0.5513E+00  0.1326E+01
  -2.610  0.5419E+00  0.1331E+01
  -2.600  0.5351E+00  0.1336E+01
  -2.590  0.5312E+00  0.1342E+01
  -2.580  0.5300E+00  0.1347E+01
  -2.570  0.5313E+00  0.1352E+01
  -2.560  0.5352E+00  0.1358E+01
  -2.550  0.5414E+00  0.1363E+01
  -2.540  0.5497E+00  0.1369E+01
  -2.530  0.5599E+00  0.1374E+01
  -2.520  0.5718E+00  0.1380E+01
  -2.510  0.5853E+00  0.1386E+01
  -2.500  0.6000E+00  0.1392E+01
  -2.490  0.6158E+00  0.1398E+01
  -2.480  0.6324E+00  0.1404E+01
  -2.470  0.6496E+00  0.1411E+01
  -2.460  0.6671E+00  0.1417E+01
  -2.450  0.6845E+00  0.1424E+01
  -2.440  0.7017E+00  0.1431E+01
  -2.430  0.7182E+00  0.1439E+01
  -2.420  0.7338E+00  0.1446E+01
  -2.410  0.7480E+00  0.1453E+01
  -2.400  0.7607E+00  0.1461E+01
  -2.390  0.7715E+00  0.1469E+01
  -2.380  0.7802E+00  0.1476E+01
  -2.370  0.7864E+00  0.1484E+01
  -2.360  0.7901E+00  0.1492E+01
  -2.350  0.7911E+00  0.1500E+01
  -2.340  0.7893E+00  0.1508E+01
  -2.330  0.7848E+00  0.1516E+01
  -2.320  0.7775E+00  0.1524E+01
  -2.310  0.7677E+00  0.1531E+01
  -2.300  0.7555E+00  0.1539E+01
  -2.290  0.7411E+00  0.1546E+01
  -2.280  0.7247E+00  0.1554E+01
  -2.270  0.7068E+00  0.1561E+01
  -2.260  0.6875E+00  0.1568E+01
  -2.250  0.6672E+00  0.1574E+01
  -2.240  0.6461E+00  0.1581E+01
  -2.230  0.6247E+00  0.1587E+01
  -2.220  0.6030E+00  0.1593E+01
  -2.210  0.5814E+00  0.1599E+01
  -2.200  0.5601E+00  0.1604E+01
  -2.190  0.5393E+00  0.1610E+01
  -2.180  0.5190E+00  0.1615E+01
  -2.170  0.4994E+00  0.1620E+01
  -2.160  0.4805E+00  0.1625E+01
  -2.150  0.4625E+00  0.1629E+01
  -2.140  0.4452E+00  0.1634E+01
  -2.130  0.4289E+00  0.1638E+01
  -2.120  0.4133E+00  0.1642E+01
  -2.110  0.3985E+00  0.1646E+01
  -2.100  0.3845E+00  0.1650E+01
  -2.090  0.3713E+00  0.1654E+01
  -2.080  0.3589E+00  0.1657E+01
  -2.070  0.3473E+00  0.1661E+01
  -2.060  0.3366E+00  0.1664E+01
  -2.050  0.3267E+00  0.1667E+01
  -2.040  0.3179E+00  0.1671E+01
  -2.030  0.3101E+00  0.1674E+01
  -2.020  0.3034E+00  0.1677E+01
  -2.010  0.2981E+00  0.1680E+01
  -2.000  0.2941E+00  0.1683E+01
  -1.990  0.2917E+00  0.1686E+01
  -1.980  0.2909E+00  0.1689E+01
  -1.970  0.2918E+00  0.1691E+01
  -1.960  0.2945E+00  0.1694E+01
  -1.950  0.2990E+00  0.1697E+01
  -1.940  0.3053E+00  0.1700E+01
  -1.930  0.3134E+00  0.1704E+01
  -1.920  0.3233E+00  0.1707E+01
  -1.910  0.3348E+00  0.1710E+01
  -1.900  0.3478E+00  0.1714E+01
  -1.890  0.3622E+00  0.1717E+01
  -1.880  0.3777E+00  0.1721E+01
  -1.870  0.3942E+00  0.1725E+01
  -1.860  0.4113E+00  0.1729E+01
  -1.850  0.4287E+00  0.1733E+01
  -1.840  0.4463E+00  0.1738E+01
  -1.830  0.4635E+00  0.1742E+01
  -1.820  0.4801E+00  0.1747E+01
  -1.810  0.4957E+00  0.1752E+01
  -1.800  0.5101E+00  0.1757E+01
  -1.790  0.5229E+00  0.1763E+01
  -1.780  0.5337E+00  0.1768E+01
  -1.770  0.5425E+00  0.1773E+01
  -1.760  0.5489E+00  0.1779E+01
  -1.750  0.5529E+00  0.1784E+01
  -1.740  0.5543E+00  0.1790E+01
  -1.730  0.5532E+00  0.1795E+01
  -1.720  0.5496E+00  0.1801E+01
  -1.710  0.5436E+00  0.1806E+01
  -1.700  0.5354E+00  0.1812E+01
  -1.690  0.5251E+00  0.1817E+01
  -1.680  0.5128E+00  0.1822E+01
  -1.670  0.4989E+00  0.1827E+01
  -1.660  0.4835E+00  0.1832E+01
  -1.650  0.4669E+00  0.1837E+01
  -1.640  0.4492E+00  0.1841E+01
  -1.630  0.4306E+00  0.1845E+01
  -1.620  0.4112E+00  0.1849E+01
  -1.610  0.3913E+00  0.1853E+01
  -1.600  0.3709E+00  0.1857E+01
  -1.590  0.3501E+00  0.1861E+01
  -1.580  0.3291E+00  0.1864E+01
  -1.570  0.3080E+00  0.1867E+01
  -1.560  0.2868E+00  0.1870E+01
  -1.550  0.2657E+00  0.1872E+01
  -1.540  0.2447E+00  0.1875E+01
  -1.530  0.2242E+00  0.1877E+01
  -1.520  0.2040E+00  0.1879E+01
  -1.510  0.1845E+00  0.1881E+01
  -1.500  0.1657E+00  0.1883E+01
  -1.490  0.1477E+00  0.1884E+01
  -1.480  0.1307E+00  0.1886E+01
  -1.470  0.1148E+00  0.1887E+01
  -1.460  0.9997E-01  0.1888E+01
  -1.450  0.8635E-01  0.1889E+01
  -1.440  0.7395E-01  0.1889E+01
  -1.430  0.6279E-01  0.1890E+01
  -1.420  0.5283E-01  0.1890E+01
  -1.410  0.4406E-01  0.1891E+01
  -1.400  0.3641E-01  0.1891E+01
  -1.390  0.2982E-01  0.1892E+01
  -1.380  0.2419E-01  0.1892E+01
  -1.370  0.1946E-01  0.1892E+01
  -1.360  0.1552E-01  0.1892E+01
  -1.350  0.1229E-01  0.1892E+01
  -1.340  0.9685E-02  0.1892E+01
  -1.330  0.7627E-02  0.1892E+01
  -1.320  0.6047E-02  0.1892E+01
  -1.310  0.4889E-02  0.1893E+01
  -1.300  0.4111E-02  0.1893E+01
  -1.290  0.3684E-02  0.1893E+01
  -1.280  0.3596E-02  0.1893E+01
  -1.270  0.3852E-02  0.1893E+01
  -1.260  0.4475E-02  0.1893E+01
  -1.250  0.5507E-02  0.1893E+01
  -1.240  0.7012E-02  0.1893E+01
  -1.230  0.9071E-02  0.1893E+01
  -1.220  0.1179E-01  0.1893E+01
  -1.210  0.1529E-01  0.1893E+01
  -1.200  0.1972E-01  0.1893E+01
  -1.190  0.2525E-01  0.1894E+01
  -1.180  0.3204E-01  0.1894E+01
  -1.170  0.4028E-01  0.1894E+01
  -1.160  0.5017E-01  0.1895E+01
  -1.150  0.6189E-01  0.1895E+01
  -1.140  0.7562E-01  0.1896E+01
  -1.130  0.9150E-01  0.1897E+01
  -1.120  0.1097E+00  0.1898E+01
  -1.110  0.1302E+00  0.1900E+01
  -1.100  0.1531E+00  0.1901E+01
  -1.090  0.1783E+00  0.1903E+01
  -1.080  0.2056E+00  0.1905E+01
  -1.070  0.2350E+00  0.1907E+01
  -1.060  0.2660E+00  0.1910E+01
  -1.050  0.2984E+00  0.1913E+01
  -1.040  0.3316E+00  0.1916E+01
  -1.030  0.3650E+00  0.1920E+01
  -1.020  0.3982E+00  0.1924E+01
  -1.010  0.4305E+00  0.1928E+01
  -1.000  0.4613E+00  0.1933E+01
  -0.990  0.4898E+00  0.1938E+01
  -0.980  0.5156E+00  0.1943E+01
  -0.970  0.5381E+00  0.1948E+01
  -0.960  0.5568E+00  0.1954E+01
  -0.950  0.5714E+00  0.1960E+01
  -0.940  0.5817E+00  0.1965E+01
  -0.930  0.5876E+00  0.1971E+01
  -0.920  0.5890E+00  0.1977E+01
  -0.910  0.5861E+00  0.1983E+01
  -0.900  0.5793E+00  0.1989E+01
  -0.890  0.5688E+00  0.1994E+01
  -0.880  0.5552E+00  0.2000E+01
  -0.870  0.5390E+00  0.2005E+01
  -0.860  0.5207E+00  0.2011E+01
  -0.850  0.5010E+00  0.2016E+01
  -0.840  0.4803E+00  0.2020E+01
  -0.830  0.4592E+00  0.2025E+01
  -0.820  0.4383E+00  0.2029E+01
  -0.810  0.4180E+00  0.2034E+01
  -0.800  0.3986E+00  0.2038E+01
  -0.790  0.3806E+00  0.2041E+01
  -0.780  0.3642E+00  0.2045E+01
  -0.770  0.3496E+00  0.2048E+01
  -0.760  0.3370E+00  0.2052E+01
  -0.750  0.3265E+00  0.2055E+01
  -0.740  0.3182E+00  0.2058E+01
  -0.730  0.3123E+00  0.2061E+01
  -0.720  0.3089E+00  0.2065E+01
  -0.710  0.3079E+00  0.2068E+01
  -0.700  0.3095E+00  0.2071E+01
  -0.690  0.3137E+00  0.2074E+01
  -0.680  0.3207E+00  0.2077E+01
  -0.670  0.3304E+00  0.2080E+01
  -0.660  0.3431E+00  0.2084E+01
  -0.650  0.3587E+00  0.2087E+01
  -0.640  0.3773E+00  0.2091E+01
  -0.630  0.3989E+00  0.2095E+01
  -0.620  0.4237E+00  0.2099E+01
  -0.610  0.4516E+00  0.2104E+01
  -0.600  0.4825E+00  0.2109E+01
  -0.590  0.5165E+00  0.2114E+01
  -0.580  0.5535E+00  0.2119E+01
  -0.570  0.5934E+00  0.2125E+01
  -0.560  0.6360E+00  0.2132E+01
  -0.550  0.6811E+00  0.2138E+01
  -0.540  0.7284E+00  0.2146E+01
  -0.530  0.7778E+00  0.2154E+01
  -0.520  0.8288E+00  0.2162E+01
  -0.510  0.8811E+00  0.2171E+01
  -0.500  0.9343E+00  0.2180E+01
  -0.490  0.9878E+00  0.2190E+01
  -0.480  0.1041E+01  0.2200E+01
  -0.470  0.1094E+01  0.2211E+01
  -0.460  0.1145E+01  0.2223E+01
  -0.450  0.1195E+01  0.2235E+01
  -0.440  0.1243E+01  0.2247E+01
  -0.430  0.1288E+01  0.2260E+01
  -0.420  0.1329E+01  0.2273E+01
  -0.410  0.1367E+01  0.2287E+01
  -0.400  0.1401E+01  0.2301E+01
  -0.390  0.1431E+01  0.2315E+01
  -0.380  0.1456E+01  0.2330E+01
  -0.370  0.1476E+01  0.2345E+01
  -0.360  0.1492E+01  0.2359E+01
  -0.350  0.1503E+01  0.2374E+01
  -0.340  0.1510E+01  0.2390E+01
  -0.330  0.1511E+01  0.2405E+01
  -0.320  0.1508E+01  0.2420E+01
  -0.310  0.1501E+01  0.2435E+01
  -0.300  0.1488E+01  0.2450E+01
  -0.290  0.1472E+01  0.2464E+01
  -0.280  0.1451E+01  0.2479E+01
  -0.270  0.1426E+01  0.2493E+01
  -0.260  0.1397E+01  0.2507E+01
  -0.250  0.1364E+01  0.2521E+01
  -0.240  0.1328E+01  0.2534E+01
  -0.230  0.1289E+01  0.2547E+01
  -0.220  0.1246E+01  0.2559E+01
  -0.210  0.1202E+01  0.2571E+01
  -0.200  0.1156E+01  0.2583E+01
  -0.190  0.1109E+01  0.2594E+01
  -0.180  0.1061E+01  0.2605E+01
  -0.170  0.1014E+01  0.2615E+01
  -0.160  0.9683E+00  0.2625E+01
  -0.150  0.9248E+00  0.2634E+01
  -0.140  0.8842E+00  0.2643E+01
  -0.130  0.8471E+00  0.2651E+01
  -0.120  0.8142E+00  0.2659E+01
  -0.110  0.7860E+00  0.2667E+01
  -0.100  0.7626E+00  0.2675E+01
  -0.090  0.7443E+00  0.2682E+01
  -0.080  0.7310E+00  0.2689E+01
  -0.070  0.7224E+00  0.2697E+01
  -0.060  0.7180E+00  0.2704E+01
  -0.050  0.7174E+00  0.2711E+01
  -0.040  0.7198E+00  0.2718E+01
  -0.030  0.7244E+00  0.2725E+01
  -0.020  0.7303E+00  0.2733E+01
  -0.010  0.7366E+00  0.2740E+01
   0.000  0.7425E+00  0.2748E+01
   0.010  0.7471E+00  0.2755E+01
   0.020  0.7497E+00  0.2763E+01
   0.030  0.7498E+00  0.2770E+01
   0.040  0.7467E+00  0.2777E+01
   0.050  0.7403E+00  0.2785E+01
   0.060  0.7305E+00  0.2792E+01
   0.070  0.7171E+00  0.2799E+01
   0.080  0.7005E+00  0.2806E+01
   0.090  0.6809E+00  0.2813E+01
   0.100  0.6588E+00  0.2820E+01
   0.110  0.6348E+00  0.2826E+01
   0.120  0.6095E+00  0.2832E+01
   0.130  0.5836E+00  0.2838E+01
   0.140  0.5577E+00  0.2844E+01
   0.150  0.5326E+00  0.2849E+01
   0.160  0.5087E+00  0.2854E+01
   0.170  0.4868E+00  0.2859E+01
   0.180  0.4672E+00  0.2864E+01
   0.190  0.4504E+00  0.2868E+01
   0.200  0.4367E+00  0.2872E+01
   0.210  0.4264E+00  0.2877E+01
   0.220  0.4196E+00  0.2881E+01
   0.230  0.4164E+00  0.2885E+01
   0.240  0.4168E+00  0.2889E+01
   0.250  0.4207E+00  0.2893E+01
   0.260  0.4281E+00  0.2898E+01
   0.270  0.4389E+00  0.2902E+01
   0.280  0.4528E+00  0.2907E+01
   0.290  0.4696E+00  0.2911E+01
   0.300  0.4890E+00  0.2916E+01
   0.310  0.5107E+00  0.2921E+01
   0.320  0.5343E+00  0.2927E+01
   0.330  0.5593E+00  0.2932E+01
   0.340  0.5852E+00  0.2938E+01
   0.350  0.6115E+00  0.2944E+01
   0.360  0.6375E+00  0.2951E+01
   0.370  0.6626E+00  0.2957E+01
   0.380  0.6861E+00  0.2964E+01
   0.390  0.7073E+00  0.2971E+01
   0.400  0.7255E+00  0.2978E+01
   0.410  0.7402E+00  0.2986E+01
   0.420  0.7509E+00  0.2993E+01
   0.430  0.7571E+00  0.3001E+01
   0.440  0.7585E+00  0.3009E+01
   0.450  0.7550E+00  0.3016E+01
   0.460  0.7466E+00  0.3024E+01
   0.470  0.7334E+00  0.3031E+01
   0.480  0.7157E+00  0.3038E+01
   0.490  0.6940E+00  0.3045E+01
   0.500  0.6688E+00  0.3052E+01
   0.510  0.6408E+00  0.3058E+01
   0.520  0.6106E+00  0.3064E+01
   0.530  0.5791E+00  0.3070E+01
   0.540  0.5468E+00  0.3075E+01
   0.550  0.5145E+00  0.3081E+01
   0.560  0.4830E+00  0.3085E+01
   0.570  0.4527E+00  0.3090E+01
   0.580  0.4243E+00  0.3094E+01
   0.590  0.3982E+00  0.3098E+01
   0.600  0.3747E+00  0.3102E+01
   0.610  0.3542E+00  0.3105E+01
   0.620  0.3368E+00  0.3109E+01
   0.630  0.3227E+00  0.3112E+01
   0.640  0.3120E+00  0.3115E+01
   0.650  0.3048E+00  0.3118E+01
   0.660  0.3010E+00  0.3121E+01
   0.670  0.3007E+00  0.3124E+01
   0.680  0.3038E+00  0.3127E+01
   0.690  0.3101E+00  0.3130E+01
   0.700  0.3195E+00  0.3134E+01
   0.710  0.3318E+00  0.3137E+01
   0.720  0.3468E+00  0.3140E+01
   0.730  0.3642E+00  0.3144E+01
   0.740  0.3836E+00  0.3148E+01
   0.750  0.4045E+00  0.3152E+01
   0.760  0.4265E+00  0.3156E+01
   0.770  0.4491E+00  0.3161E+01
   0.780  0.4715E+00  0.3165E+01
   0.790  0.4933E+00  0.3170E+01
   0.800  0.5136E+00  0.3175E+01
   0.810  0.5320E+00  0.3181E+01
   0.820  0.5478E+00  0.3186E+01
   0.830  0.5605E+00  0.3192E+01
   0.840  0.5695E+00  0.3197E+01
   0.850  0.5746E+00  0.3203E+01
   0.860  0.5754E+00  0.3209E+01
   0.870  0.5718E+00  0.3215E+01
   0.880  0.5639E+00  0.3220E+01
   0.890  0.5517E+00  0.3226E+01
   0.900  0.5357E+00  0.3231E+01
   0.910  0.5160E+00  0.3236E+01
   0.920  0.4934E+00  0.3241E+01
   0.930  0.4683E+00  0.3246E+01
   0.940  0.4415E+00  0.3250E+01
   0.950  0.4136E+00  0.3255E+01
   0.960  0.3853E+00  0.3258E+01
   0.970  0.3572E+00  0.3262E+01
   0.980  0.3301E+00  0.3265E+01
   0.990  0.3044E+00  0.3268E+01
   1.000  0.2807E+00  0.3271E+01
   1.010  0.2592E+00  0.3274E+01
   1.020  0.2402E+00  0.3276E+01
   1.030  0.2239E+00  0.3278E+01
